Elapsed Time (s),Voltage (V)
0.000,3.332
1.000,3.139
2.000,3.074
3.000,3.070
4.000,3.163
5.000,3.147
6.000,3.111
7.000,3.103
8.000,3.127
9.000,3.107
10.000,3.147
11.000,3.111
12.000,3.191
13.000,3.095
14.000,3.099
15.000,3.151
16.000,3.147
17.000,3.127
18.000,3.107
19.000,3.151
20.000,3.103
21.000,3.167
22.000,3.131
23.000,3.082
24.000,3.171
25.000,3.111
26.000,3.143
27.000,3.095
28.000,3.135
29.000,3.119
30.000,3.082
31.000,3.147
32.000,3.159
33.000,3.103
34.000,3.163
35.000,3.115
36.000,3.095
37.000,3.131
38.000,3.171
39.000,3.090
40.000,3.119
41.000,3.107
42.000,3.131
43.000,3.119
44.000,3.103
45.000,3.107
46.000,3.099
47.000,3.175
48.000,3.119
49.000,3.119
50.000,3.143
51.000,3.111
52.000,3.171
53.000,3.147
54.000,3.203
55.000,3.090
56.000,3.143
57.000,3.191
58.000,3.107
59.000,3.159
60.000,3.147
61.000,3.119
62.000,3.090
63.000,3.155
64.000,3.167
65.000,3.139
66.000,3.191
67.000,3.151
68.000,3.127
69.000,3.139
70.000,3.099
71.000,3.143
72.000,3.155
73.000,3.155
74.000,3.119
75.000,3.095
76.000,3.082
77.000,3.143
78.000,3.082
79.000,3.082
80.000,3.171
81.000,3.143
82.000,3.147
83.000,3.131
84.000,3.086
85.000,3.123
86.000,3.095
87.000,3.111
88.000,3.086
89.000,3.119
90.000,3.115
91.000,3.107
92.000,3.095
93.000,3.135
94.000,3.127
95.000,3.119
96.000,3.147
97.000,3.115
98.000,3.119
99.000,3.078
100.000,3.191
101.000,3.147
102.000,3.107
103.000,3.103
104.000,3.103
105.000,3.119
106.000,3.074
107.000,3.147
108.000,3.139
109.000,3.119
110.000,3.139
111.000,3.179
112.000,3.131
113.000,3.175
114.000,3.175
115.000,3.139
116.000,3.139
117.000,3.099
118.000,3.074
119.000,3.159
120.000,3.131
121.000,3.155
122.000,3.155
123.000,3.095
124.000,3.103
125.000,3.111
126.000,3.095
127.000,3.127
128.000,3.107
129.000,3.107
130.000,3.131
131.000,3.119
132.000,3.095
133.000,3.143
134.000,3.183
135.000,3.127
136.000,3.078
137.000,3.086
138.000,3.147
139.000,3.147
140.000,3.159
141.000,3.090
142.000,3.159
143.000,3.099
144.000,3.111
145.000,3.163
146.000,3.147
147.000,3.099
148.000,3.167
149.000,3.159
150.000,3.095
151.000,3.175
152.000,3.107
153.000,3.135
154.000,3.074
155.000,3.143
156.000,3.086
157.000,3.095
158.000,3.175
159.000,3.143
160.000,3.167
161.000,3.171
162.000,3.179
163.000,3.107
164.000,3.090
165.000,3.115
166.000,3.111
167.000,3.171
168.000,3.090
169.000,3.086
170.000,3.127
171.000,3.111
172.000,3.111
173.000,3.111
174.000,3.163
175.000,3.111
176.000,3.115
177.000,3.070
178.000,3.115
179.000,3.078
180.000,3.147
181.000,3.135
182.000,3.171
183.000,3.086
184.000,3.090
185.000,3.179
186.000,3.078
187.000,3.074
188.000,3.167
189.000,3.135
190.000,3.175
191.000,3.119
192.000,3.099
193.000,3.127
194.000,3.078
195.000,3.115
196.000,3.127
197.000,3.099
198.000,3.143
199.000,3.107
200.000,3.107
201.000,3.099
202.000,3.095
203.000,3.115
204.000,3.167
205.000,3.131
206.000,3.099
207.000,3.103
208.000,3.099
209.000,3.095
210.000,3.115
211.000,3.082
212.000,3.147
213.000,3.151
214.000,3.082
215.000,3.127
216.000,3.155
217.000,3.139
218.000,3.107
219.000,3.191
220.000,3.143
221.000,3.191
222.000,3.143
223.000,3.131
224.000,3.082
225.000,3.074
226.000,3.119
227.000,3.139
228.000,3.127
229.000,3.103
230.000,3.107
231.000,3.115
232.000,3.139
233.000,3.131
234.000,3.119
235.000,3.082
236.000,3.119
237.000,3.127
238.000,3.090
239.000,3.127
240.000,3.143
241.000,3.143
242.000,3.111
243.000,3.147
244.000,3.131
245.000,3.167
246.000,3.147
247.000,3.159
248.000,3.139
249.000,3.147
250.000,3.147
251.000,3.103
252.000,3.115
253.000,3.103
254.000,3.107
255.000,3.103
256.000,3.143
257.000,3.139
258.000,3.111
259.000,3.107
260.000,3.143
261.000,3.115
262.000,3.131
263.000,3.103
264.000,3.135
265.000,3.103
266.000,3.135
267.000,3.082
268.000,3.086
269.000,3.175
270.000,3.195
271.000,3.147
272.000,3.135
273.000,3.123
274.000,3.139
275.000,3.175
276.000,3.099
277.000,3.147
278.000,3.103
279.000,3.095
280.000,3.099
281.000,3.107
282.000,3.086
283.000,3.175
284.000,3.099
285.000,3.070
286.000,3.139
287.000,3.095
288.000,3.086
289.000,3.115
290.000,3.086
291.000,3.135
292.000,3.131
293.000,3.099
294.000,3.099
295.000,3.086
296.000,3.131
297.000,3.155
298.000,3.131
299.000,3.135
300.000,3.131
301.000,3.099
302.000,3.086
303.000,3.199
304.000,3.175
305.000,3.086
306.000,3.143
307.000,3.119
308.000,3.167
309.000,3.143
310.000,3.179
311.000,3.135
312.000,3.159
313.000,3.191
314.000,3.119
315.000,3.139
316.000,3.115
317.000,3.086
318.000,3.095
319.000,3.147
320.000,3.123
321.000,3.135
322.000,3.139
323.000,3.159
324.000,3.115
325.000,3.127
326.000,3.175
327.000,3.135
328.000,3.147
329.000,3.103
330.000,3.111
331.000,3.143
332.000,3.163
333.000,3.139
334.000,3.147
335.000,3.155
336.000,3.167
337.000,3.103
338.000,3.135
339.000,3.199
340.000,3.127
341.000,3.107
342.000,3.119
343.000,3.139
344.000,3.127
345.000,3.155
346.000,3.147
347.000,3.139
348.000,3.103
349.000,3.103
350.000,3.167
351.000,3.082
352.000,3.127
353.000,3.127
354.000,3.143
355.000,3.086
356.000,3.127
357.000,3.151
358.000,3.123
359.000,3.175
360.000,3.143
361.000,3.095
362.000,3.107
363.000,3.090
364.000,3.086
365.000,3.167
366.000,3.111
367.000,3.135
368.000,3.095
369.000,3.151
370.000,3.115
371.000,3.159
372.000,3.103
373.000,3.131
374.000,3.135
375.000,3.159
376.000,3.111
377.000,3.159
378.000,3.127
379.000,3.155
380.000,3.095
381.000,3.167
382.000,3.070
383.000,3.135
384.000,3.095
385.000,3.111
386.000,3.103
387.000,3.111
388.000,3.074
389.000,3.199
390.000,3.086
391.000,3.159
392.000,3.086
393.000,3.163
394.000,3.135
395.000,3.191
396.000,3.167
397.000,3.135
398.000,3.187
399.000,3.095
400.000,3.143
401.000,3.167
402.000,3.127
403.000,3.099
404.000,3.147
405.000,3.095
406.000,3.139
407.000,3.199
408.000,3.159
409.000,3.175
410.000,3.119
411.000,3.115
412.000,3.159
413.000,3.151
414.000,3.086
415.000,3.139
416.000,3.139
417.000,3.099
418.000,3.127
419.000,3.135
420.000,3.163
421.000,3.107
422.000,3.086
423.000,3.159
424.000,3.147
425.000,3.111
426.000,3.119
427.000,3.159
428.000,3.131
429.000,3.139
430.000,3.131
431.000,3.095
432.000,3.119
433.000,3.167
434.000,3.082
435.000,3.151
436.000,3.143
437.000,3.159
438.000,3.103
439.000,3.147
440.000,3.099
441.000,3.167
442.000,3.135
443.000,3.183
444.000,3.163
445.000,3.115
446.000,3.159
447.000,3.111
448.000,3.159
449.000,3.099
450.000,3.099
451.000,3.147
452.000,3.119
453.000,3.159
454.000,3.111
455.000,3.179
456.000,3.111
457.000,3.151
458.000,3.115
459.000,3.074
460.000,3.127
461.000,3.139
462.000,3.082
463.000,3.167
464.000,3.119
465.000,3.086
466.000,3.147
467.000,3.143
468.000,3.175
469.000,3.107
470.000,3.115
471.000,3.143
472.000,3.127
473.000,3.151
474.000,3.163
475.000,3.135
476.000,3.143
477.000,3.139
478.000,3.159
479.000,3.127
480.000,3.095
481.000,3.155
482.000,3.131
483.000,3.107
484.000,3.115
485.000,3.119
486.000,3.074
487.000,3.127
488.000,3.107
489.000,3.183
490.000,3.082
491.000,3.078
492.000,3.183
493.000,3.163
494.000,3.171
495.000,3.139
496.000,3.179
497.000,3.086
498.000,3.086
499.000,3.143
500.000,3.143
501.000,3.135
502.000,3.131
503.000,3.179
504.000,3.135
505.000,3.119
506.000,3.131
507.000,3.115
508.000,3.151
509.000,3.127
510.000,3.127
511.000,3.147
512.000,3.127
513.000,3.099
514.000,3.103
515.000,3.099
516.000,3.103
517.000,3.099
518.000,3.139
519.000,3.139
520.000,3.086
521.000,3.155
522.000,3.119
523.000,3.082
524.000,3.099
525.000,3.078
526.000,3.115
527.000,3.131
528.000,3.111
529.000,3.135
530.000,3.111
531.000,3.143
532.000,3.143
533.000,3.115
534.000,3.107
535.000,3.187
536.000,3.099
537.000,3.131
538.000,3.131
539.000,3.099
540.000,3.115
541.000,3.127
542.000,3.167
543.000,3.159
544.000,3.139
545.000,3.119
546.000,3.082
547.000,3.099
548.000,3.131
549.000,3.119
550.000,3.119
551.000,3.147
552.000,3.095
553.000,3.135
554.000,3.151
555.000,3.159
556.000,3.151
557.000,3.179
558.000,3.111
559.000,3.151
560.000,3.119
561.000,3.111
562.000,3.159
563.000,3.099
564.000,3.155
565.000,3.183
566.000,3.103
567.000,3.167
568.000,3.147
569.000,3.086
570.000,3.078
571.000,3.143
572.000,3.111
573.000,3.143
574.000,3.103
575.000,3.139
576.000,3.115
577.000,3.151
578.000,3.131
579.000,3.127
580.000,3.119
581.000,3.103
582.000,3.107
583.000,3.191
584.000,3.131
585.000,3.115
586.000,3.151
587.000,3.147
588.000,3.139
589.000,3.143
590.000,3.131
591.000,3.135
592.000,3.199
593.000,3.163
594.000,3.099
595.000,3.103
596.000,3.159
597.000,3.099
598.000,3.179
599.000,3.115
600.000,3.107
601.000,3.139
602.000,3.151
603.000,3.167
604.000,3.107
605.000,3.139
606.000,3.139
607.000,3.099
608.000,3.099
609.000,3.111
610.000,3.135
611.000,3.151
612.000,3.187
613.000,3.151
614.000,3.107
615.000,3.151
616.000,3.151
617.000,3.163
618.000,3.115
619.000,3.131
620.000,3.147
621.000,3.103
622.000,3.070
623.000,3.095
624.000,3.119
625.000,3.078
626.000,3.183
627.000,3.127
628.000,3.131
629.000,3.131
630.000,3.095
631.000,3.095
632.000,3.099
633.000,3.103
634.000,3.135
635.000,3.159
636.000,3.143
637.000,3.139
638.000,3.151
639.000,3.147
640.000,3.155
641.000,3.131
642.000,3.183
643.000,3.139
644.000,3.099
645.000,3.159
646.000,3.082
647.000,3.082
648.000,3.127
649.000,3.099
650.000,3.082
651.000,3.119
652.000,3.115
653.000,3.155
654.000,3.099
655.000,3.095
656.000,3.175
657.000,3.103
658.000,3.099
659.000,3.111
660.000,3.163
661.000,3.175
662.000,3.103
663.000,3.143
664.000,3.171
665.000,3.179
666.000,3.078
667.000,3.135
668.000,3.099
669.000,3.215
670.000,3.203
671.000,3.139
672.000,3.099
673.000,3.139
674.000,3.115
675.000,3.099
676.000,3.159
677.000,3.139
678.000,3.135
679.000,3.139
680.000,3.131
681.000,3.131
682.000,3.171
683.000,3.099
684.000,3.163
685.000,3.074
686.000,3.074
687.000,3.171
688.000,3.123
689.000,3.086
690.000,3.171
691.000,3.135
692.000,3.163
693.000,3.115
694.000,3.135
695.000,3.143
696.000,3.135
697.000,3.115
698.000,3.123
699.000,3.143
700.000,3.086
701.000,3.159
702.000,3.103
703.000,3.135
704.000,3.111
705.000,3.167
706.000,3.131
707.000,3.135
708.000,3.111
709.000,3.139
710.000,3.159
711.000,3.147
712.000,3.139
713.000,3.135
714.000,3.086
715.000,3.147
716.000,3.111
717.000,3.139
718.000,3.115
719.000,3.159
720.000,3.095
721.000,3.143
722.000,3.115
723.000,3.163
724.000,3.147
725.000,3.167
726.000,3.139
727.000,3.086
728.000,3.151
729.000,3.086
730.000,3.159
731.000,3.099
732.000,3.163
733.000,3.095
734.000,3.127
735.000,3.175
736.000,3.135
737.000,3.163
738.000,3.115
739.000,3.163
740.000,3.147
741.000,3.107
742.000,3.127
743.000,3.115
744.000,3.119
745.000,3.127
746.000,3.090
747.000,3.131
748.000,3.119
749.000,3.143
750.000,3.139
751.000,3.167
752.000,3.090
753.000,3.143
754.000,3.111
755.000,3.131
756.000,3.099
757.000,3.099
758.000,3.103
759.000,3.131
760.000,3.119
761.000,3.086
762.000,3.119
763.000,3.127
764.000,3.135
765.000,3.175
766.000,3.139
767.000,3.119
768.000,3.111
769.000,3.078
770.000,3.119
771.000,3.103
772.000,3.139
773.000,3.135
774.000,3.139
775.000,3.078
776.000,3.131
777.000,3.143
778.000,3.111
779.000,3.155
780.000,3.111
781.000,3.171
782.000,3.107
783.000,3.095
784.000,3.131
785.000,3.103
786.000,3.159
787.000,3.115
788.000,3.119
789.000,3.163
790.000,3.135
791.000,3.078
792.000,3.115
793.000,3.078
794.000,3.111
795.000,3.167
796.000,3.175
797.000,3.151
798.000,3.103
799.000,3.107
800.000,3.086
801.000,3.107
802.000,3.139
803.000,3.155
804.000,3.115
805.000,3.131
806.000,3.095
807.000,3.127
808.000,3.074
809.000,3.139
810.000,3.103
811.000,3.115
812.000,3.175
813.000,3.103
814.000,3.099
815.000,3.082
816.000,3.103
817.000,3.119
818.000,3.115
819.000,3.131
820.000,3.127
821.000,3.135
822.000,3.119
823.000,3.107
824.000,3.143
825.000,3.139
826.000,3.099
827.000,3.086
828.000,3.131
829.000,3.086
830.000,3.078
831.000,3.103
832.000,3.131
833.000,3.115
834.000,3.131
835.000,3.163
836.000,3.078
837.000,3.175
838.000,3.147
839.000,3.155
840.000,3.127
841.000,3.082
842.000,3.139
843.000,3.151
844.000,3.167
845.000,3.107
846.000,3.115
847.000,3.086
848.000,3.107
849.000,3.167
850.000,3.115
851.000,3.131
852.000,3.115
853.000,3.103
854.000,3.155
855.000,3.175
856.000,3.115
857.000,3.119
858.000,3.187
859.000,3.147
860.000,3.151
861.000,3.179
862.000,3.111
863.000,3.159
864.000,3.155
865.000,3.151
866.000,3.139
867.000,3.191
868.000,3.131
869.000,3.111
870.000,3.135
871.000,3.103
872.000,3.163
873.000,3.139
874.000,3.107
875.000,3.191
876.000,3.171
877.000,3.082
878.000,3.195
879.000,3.086
880.000,3.139
881.000,3.115
882.000,3.127
883.000,3.139
884.000,3.179
885.000,3.119
886.000,3.131
887.000,3.115
888.000,3.159
889.000,3.159
890.000,3.127
891.000,3.171
892.000,3.175
893.000,3.167
894.000,3.135
895.000,3.099
896.000,3.103
897.000,3.135
898.000,3.082
899.000,3.099
900.000,3.159
901.000,3.131
902.000,3.127
903.000,3.078
904.000,3.127
905.000,3.159
906.000,3.082
907.000,3.147
908.000,3.090
909.000,3.127
910.000,3.179
911.000,3.191
912.000,3.115
913.000,3.103
914.000,3.103
915.000,3.099
916.000,3.135
917.000,3.147
918.000,3.103
919.000,3.090
920.000,3.179
921.000,3.107
922.000,3.115
923.000,3.115
924.000,3.163
925.000,3.175
926.000,3.107
927.000,3.095
928.000,3.095
929.000,3.107
930.000,3.078
931.000,3.107
932.000,3.147
933.000,3.131
934.000,3.099
935.000,3.131
936.000,3.199
937.000,3.179
938.000,3.171
939.000,3.103
940.000,3.139
941.000,3.167
942.000,3.082
943.000,3.119
944.000,3.127
945.000,3.151
946.000,3.143
947.000,3.127
948.000,3.115
949.000,3.131
950.000,3.086
951.000,3.127
952.000,3.183
953.000,3.119
954.000,3.139
955.000,3.139
956.000,3.139
957.000,3.107
958.000,3.127
959.000,3.119
960.000,3.095
961.000,3.135
962.000,3.119
963.000,3.119
964.000,3.103
965.000,3.107
966.000,3.167
967.000,3.147
968.000,3.151
969.000,3.163
970.000,3.099
971.000,3.082
972.000,3.151
973.000,3.127
974.000,3.135
975.000,3.131
976.000,3.151
977.000,3.095
978.000,3.151
979.000,3.163
980.000,3.086
981.000,3.175
982.000,3.090
983.000,3.135
984.000,3.147
985.000,3.131
986.000,3.103
987.000,3.159
988.000,3.115
989.000,3.143
990.000,3.159
991.000,3.143
992.000,3.159
993.000,3.103
994.000,3.155
995.000,3.107
996.000,3.139
997.000,3.131
998.000,3.167
999.000,3.119
1000.000,3.135
1001.000,3.151
1002.000,3.127
1003.000,3.135
1004.000,3.090
1005.000,3.167
1006.000,3.107
1007.000,3.179
1008.000,3.115
1009.000,3.119
1010.000,3.171
1011.000,3.115
1012.000,3.179
1013.000,3.115
1014.000,3.175
1015.000,3.103
1016.000,3.155
1017.000,3.159
1018.000,3.107
1019.000,3.151
1020.000,3.099
1021.000,3.147
1022.000,3.103
1023.000,3.143
1024.000,3.082
1025.000,3.167
1026.000,3.119
1027.000,3.143
1028.000,3.090
1029.000,3.151
1030.000,3.191
1031.000,3.147
1032.000,3.107
1033.000,3.167
1034.000,3.119
1035.000,3.115
1036.000,3.139
1037.000,3.127
1038.000,3.131
1039.000,3.151
1040.000,3.107
1041.000,3.127
1042.000,3.195
1043.000,3.191
1044.000,3.074
1045.000,3.119
1046.000,3.151
1047.000,3.127
1048.000,3.175
1049.000,3.147
1050.000,3.107
1051.000,3.131
1052.000,3.107
1053.000,3.179
1054.000,3.187
1055.000,3.099
1056.000,3.099
1057.000,3.115
1058.000,3.099
1059.000,3.151
1060.000,3.115
1061.000,3.119
1062.000,3.151
1063.000,3.179
1064.000,3.139
1065.000,3.151
1066.000,3.111
1067.000,3.095
1068.000,3.159
1069.000,3.143
1070.000,3.099
1071.000,3.111
1072.000,3.107
1073.000,3.115
1074.000,3.203
1075.000,3.135
1076.000,3.115
1077.000,3.095
1078.000,3.167
1079.000,3.163
1080.000,3.147
1081.000,3.074
1082.000,3.111
1083.000,3.135
1084.000,3.159
1085.000,3.103
1086.000,3.139
1087.000,3.095
1088.000,3.115
1089.000,3.123
1090.000,3.147
1091.000,3.127
1092.000,3.159
1093.000,3.147
1094.000,3.143
1095.000,3.095
1096.000,3.078
1097.000,3.115
1098.000,3.135
1099.000,3.155
1100.000,3.099
1101.000,3.135
1102.000,3.095
1103.000,3.095
1104.000,3.111
1105.000,3.179
1106.000,3.147
1107.000,3.139
1108.000,3.099
1109.000,3.163
1110.000,3.115
1111.000,3.111
1112.000,3.127
1113.000,3.139
1114.000,3.155
1115.000,3.163
1116.000,3.119
1117.000,3.107
1118.000,3.163
1119.000,3.095
1120.000,3.111
1121.000,3.127
1122.000,3.115
1123.000,3.183
1124.000,3.095
1125.000,3.167
1126.000,3.179
1127.000,3.103
1128.000,3.082
1129.000,3.159
1130.000,3.155
1131.000,3.175
1132.000,3.163
1133.000,3.167
1134.000,3.179
1135.000,3.127
1136.000,3.139
1137.000,3.127
1138.000,3.151
1139.000,3.143
1140.000,3.127
1141.000,3.086
1142.000,3.175
1143.000,3.095
1144.000,3.086
1145.000,3.135
1146.000,3.175
1147.000,3.147
1148.000,3.123
1149.000,3.147
1150.000,3.099
1151.000,3.135
1152.000,3.107
1153.000,3.139
1154.000,3.082
1155.000,3.151
1156.000,3.095
1157.000,3.175
1158.000,3.099
1159.000,3.135
1160.000,3.143
1161.000,3.139
1162.000,3.147
1163.000,3.159
1164.000,3.151
1165.000,3.115
1166.000,3.151
1167.000,3.167
1168.000,3.147
1169.000,3.143
1170.000,3.147
1171.000,3.155
1172.000,3.090
1173.000,3.099
1174.000,3.127
1175.000,3.115
1176.000,3.187
1177.000,3.135
1178.000,3.163
1179.000,3.175
1180.000,3.103
1181.000,3.131
1182.000,3.090
1183.000,3.095
1184.000,3.119
1185.000,3.159
1186.000,3.183
1187.000,3.111
1188.000,3.095
1189.000,3.151
1190.000,3.147
1191.000,3.151
1192.000,3.095
1193.000,3.135
1194.000,3.131
1195.000,3.163
1196.000,3.095
1197.000,3.147
1198.000,3.143
1199.000,3.078
1200.000,3.139
1201.000,3.095
1202.000,3.115
1203.000,3.151
1204.000,3.119
1205.000,3.119
1206.000,3.127
1207.000,3.135
1208.000,3.082
1209.000,3.095
1210.000,3.139
1211.000,3.131
1212.000,3.147
1213.000,3.103
1214.000,3.159
1215.000,3.095
1216.000,3.151
1217.000,3.099
1218.000,3.115
1219.000,3.143
1220.000,3.115
1221.000,3.167
1222.000,3.086
1223.000,3.147
1224.000,3.131
1225.000,3.139
1226.000,3.143
1227.000,3.139
1228.000,3.095
1229.000,3.167
1230.000,3.078
1231.000,3.119
1232.000,3.127
1233.000,3.099
1234.000,3.171
1235.000,3.107
1236.000,3.119
1237.000,3.139
1238.000,3.131
1239.000,3.103
1240.000,3.119
1241.000,3.095
1242.000,3.143
1243.000,3.183
1244.000,3.115
1245.000,3.151
1246.000,3.127
1247.000,3.131
1248.000,3.131
1249.000,3.143
1250.000,3.103
1251.000,3.111
1252.000,3.191
1253.000,3.099
1254.000,3.151
1255.000,3.147
1256.000,3.143
1257.000,3.103
1258.000,3.127
1259.000,3.095
1260.000,3.159
1261.000,3.123
1262.000,3.151
1263.000,3.139
1264.000,3.119
1265.000,3.095
1266.000,3.131
1267.000,3.143
1268.000,3.131
1269.000,3.167
1270.000,3.147
1271.000,3.135
1272.000,3.131
1273.000,3.183
1274.000,3.111
1275.000,3.103
1276.000,3.123
1277.000,3.099
1278.000,3.082
1279.000,3.151
1280.000,3.159
1281.000,3.074
1282.000,3.151
1283.000,3.107
1284.000,3.135
1285.000,3.139
1286.000,3.155
1287.000,3.103
1288.000,3.131
1289.000,3.167
1290.000,3.099
1291.000,3.167
1292.000,3.111
1293.000,3.179
1294.000,3.115
1295.000,3.127
1296.000,3.082
1297.000,3.179
1298.000,3.159
1299.000,3.074
1300.000,3.139
1301.000,3.187
1302.000,3.163
1303.000,3.099
1304.000,3.159
1305.000,3.115
1306.000,3.135
1307.000,3.147
1308.000,3.143
1309.000,3.119
1310.000,3.155
1311.000,3.127
1312.000,3.115
1313.000,3.078
1314.000,3.107
1315.000,3.107
1316.000,3.195
1317.000,3.191
1318.000,3.099
1319.000,3.107
1320.000,3.167
1321.000,3.099
1322.000,3.171
1323.000,3.099
1324.000,3.147
1325.000,3.086
1326.000,3.147
1327.000,3.086
1328.000,3.111
1329.000,3.147
1330.000,3.135
1331.000,3.175
1332.000,3.139
1333.000,3.095
1334.000,3.095
1335.000,3.167
1336.000,3.115
1337.000,3.171
1338.000,3.099
1339.000,3.115
1340.000,3.171
1341.000,3.135
1342.000,3.159
1343.000,3.131
1344.000,3.139
1345.000,3.135
1346.000,3.123
1347.000,3.090
1348.000,3.099
1349.000,3.119
1350.000,3.127
1351.000,3.147
1352.000,3.119
1353.000,3.143
1354.000,3.131
1355.000,3.086
1356.000,3.151
1357.000,3.199
1358.000,3.074
1359.000,3.111
1360.000,3.119
1361.000,3.115
1362.000,3.143
1363.000,3.119
1364.000,3.151
1365.000,3.183
1366.000,3.135
1367.000,3.143
1368.000,3.151
1369.000,3.131
1370.000,3.103
1371.000,3.163
1372.000,3.135
1373.000,3.183
1374.000,3.183
1375.000,3.163
1376.000,3.147
1377.000,3.139
1378.000,3.115
1379.000,3.143
1380.000,3.147
1381.000,3.111
1382.000,3.139
1383.000,3.107
1384.000,3.115
1385.000,3.119
1386.000,3.155
1387.000,3.167
1388.000,3.167
1389.000,3.090
1390.000,3.131
1391.000,3.135
1392.000,3.139
1393.000,3.151
1394.000,3.131
1395.000,3.147
1396.000,3.171
1397.000,3.103
1398.000,3.147
1399.000,3.183
1400.000,3.167
1401.000,3.119
1402.000,3.115
1403.000,3.119
1404.000,3.099
1405.000,3.086
1406.000,3.111
1407.000,3.139
1408.000,3.082
1409.000,3.131
1410.000,3.127
1411.000,3.139
1412.000,3.131
1413.000,3.095
1414.000,3.159
1415.000,3.123
1416.000,3.115
1417.000,3.195
1418.000,3.139
1419.000,3.131
1420.000,3.107
1421.000,3.135
1422.000,3.099
1423.000,3.175
1424.000,3.167
1425.000,3.115
1426.000,3.135
1427.000,3.159
1428.000,3.086
1429.000,3.139
1430.000,3.086
1431.000,3.155
1432.000,3.127
1433.000,3.135
1434.000,3.107
1435.000,3.078
1436.000,3.195
1437.000,3.159
1438.000,3.147
1439.000,3.155
1440.000,3.099
1441.000,3.135
1442.000,3.099
1443.000,3.151
1444.000,3.127
1445.000,3.115
1446.000,3.199
1447.000,3.139
1448.000,3.139
1449.000,3.127
1450.000,3.123
1451.000,3.111
1452.000,3.131
1453.000,3.131
1454.000,3.147
1455.000,3.107
1456.000,3.119
1457.000,3.078
1458.000,3.135
1459.000,3.147
1460.000,3.111
1461.000,3.127
1462.000,3.135
1463.000,3.107
1464.000,3.131
1465.000,3.115
1466.000,3.147
1467.000,3.103
1468.000,3.103
1469.000,3.159
1470.000,3.147
1471.000,3.099
1472.000,3.179
1473.000,3.119
1474.000,3.095
1475.000,3.095
1476.000,3.155
1477.000,3.123
1478.000,3.127
1479.000,3.163
1480.000,3.147
1481.000,3.171
1482.000,3.119
1483.000,3.086
1484.000,3.099
1485.000,3.139
1486.000,3.090
1487.000,3.175
1488.000,3.111
1489.000,3.119
1490.000,3.171
1491.000,3.107
1492.000,3.155
1493.000,3.099
1494.000,3.167
1495.000,3.159
1496.000,3.119
1497.000,3.159
1498.000,3.131
1499.000,3.143
1500.000,3.159
1501.000,3.086
1502.000,3.147
1503.000,3.143
1504.000,3.131
1505.000,3.159
1506.000,3.111
1507.000,3.159
1508.000,3.099
1509.000,3.111
1510.000,3.147
1511.000,3.143
1512.000,3.119
1513.000,3.111
1514.000,3.090
1515.000,3.143
1516.000,3.163
1517.000,3.095
1518.000,3.143
1519.000,3.139
1520.000,3.147
1521.000,3.151
1522.000,3.171
1523.000,3.119
1524.000,3.119
1525.000,3.195
1526.000,3.159
1527.000,3.115
1528.000,3.127
1529.000,3.123
1530.000,3.074
1531.000,3.191
1532.000,3.143
1533.000,3.163
1534.000,3.123
1535.000,3.135
1536.000,3.078
1537.000,3.147
1538.000,3.095
1539.000,3.111
1540.000,3.135
1541.000,3.115
1542.000,3.171
1543.000,3.159
1544.000,3.143
1545.000,3.167
1546.000,3.171
1547.000,3.082
1548.000,3.179
1549.000,3.135
1550.000,3.099
1551.000,3.139
1552.000,3.111
1553.000,3.131
1554.000,3.082
1555.000,3.135
1556.000,3.095
1557.000,3.107
1558.000,3.171
1559.000,3.155
1560.000,3.127
1561.000,3.191
1562.000,3.115
1563.000,3.167
1564.000,3.082
1565.000,3.115
1566.000,3.082
1567.000,3.107
1568.000,3.167
1569.000,3.119
1570.000,3.111
1571.000,3.139
1572.000,3.127
1573.000,3.143
1574.000,3.171
1575.000,3.163
1576.000,3.135
1577.000,3.107
1578.000,3.115
1579.000,3.179
1580.000,3.070
1581.000,3.151
1582.000,3.167
1583.000,3.111
1584.000,3.139
1585.000,3.107
1586.000,3.090
1587.000,3.135
1588.000,3.143
1589.000,3.151
1590.000,3.147
1591.000,3.099
1592.000,3.123
1593.000,3.127
1594.000,3.151
1595.000,3.163
1596.000,3.115
1597.000,3.099
1598.000,3.119
1599.000,3.143
1600.000,3.127
1601.000,3.147
1602.000,3.151
1603.000,3.147
1604.000,3.151
1605.000,3.107
1606.000,3.090
1607.000,3.090
1608.000,3.103
1609.000,3.159
1610.000,3.147
1611.000,3.078
1612.000,3.095
1613.000,3.131
1614.000,3.111
1615.000,3.103
1616.000,3.131
1617.000,3.135
1618.000,3.103
1619.000,3.111
1620.000,3.111
1621.000,3.131
1622.000,3.135
1623.000,3.111
1624.000,3.095
1625.000,3.175
1626.000,3.155
1627.000,3.171
1628.000,3.167
1629.000,3.151
1630.000,3.086
1631.000,3.090
1632.000,3.127
1633.000,3.115
1634.000,3.127
1635.000,3.171
1636.000,3.107
1637.000,3.111
1638.000,3.159
1639.000,3.151
1640.000,3.143
1641.000,3.119
1642.000,3.143
1643.000,3.099
1644.000,3.135
1645.000,3.127
1646.000,3.099
1647.000,3.127
1648.000,3.135
1649.000,3.147
1650.000,3.151
1651.000,3.163
1652.000,3.095
1653.000,3.159
1654.000,3.135
1655.000,3.179
1656.000,3.151
1657.000,3.131
1658.000,3.127
1659.000,3.119
1660.000,3.159
1661.000,3.127
1662.000,3.095
1663.000,3.115
1664.000,3.127
1665.000,3.127
1666.000,3.135
1667.000,3.095
1668.000,3.131
1669.000,3.143
1670.000,3.082
1671.000,3.135
1672.000,3.119
1673.000,3.179
1674.000,3.191
1675.000,3.111
1676.000,3.151
1677.000,3.143
1678.000,3.135
1679.000,3.115
1680.000,3.115
1681.000,3.123
1682.000,3.107
1683.000,3.143
1684.000,3.163
1685.000,3.175
1686.000,3.175
1687.000,3.171
1688.000,3.135
1689.000,3.107
1690.000,3.119
1691.000,3.139
1692.000,3.107
1693.000,3.107
1694.000,3.143
1695.000,3.099
1696.000,3.159
1697.000,3.099
1698.000,3.103
1699.000,3.183
1700.000,3.115
1701.000,3.123
1702.000,3.159
1703.000,3.163
1704.000,3.151
1705.000,3.143
1706.000,3.143
1707.000,3.115
1708.000,3.111
1709.000,3.171
1710.000,3.107
1711.000,3.175
1712.000,3.171
1713.000,3.147
1714.000,3.119
1715.000,3.127
1716.000,3.095
1717.000,3.127
1718.000,3.135
1719.000,3.119
1720.000,3.115
1721.000,3.159
1722.000,3.139
1723.000,3.151
1724.000,3.131
1725.000,3.070
1726.000,3.095
1727.000,3.163
1728.000,3.090
1729.000,3.103
1730.000,3.127
1731.000,3.127
1732.000,3.115
1733.000,3.086
1734.000,3.159
1735.000,3.111
1736.000,3.099
1737.000,3.139
1738.000,3.159
1739.000,3.103
1740.000,3.119
1741.000,3.147
1742.000,3.111
1743.000,3.107
1744.000,3.119
1745.000,3.127
1746.000,3.111
1747.000,3.111
1748.000,3.135
1749.000,3.151
1750.000,3.151
1751.000,3.183
1752.000,3.147
1753.000,3.119
1754.000,3.135
1755.000,3.171
1756.000,3.195
1757.000,3.115
1758.000,3.187
1759.000,3.095
1760.000,3.147
1761.000,3.095
1762.000,3.151
1763.000,3.103
1764.000,3.143
1765.000,3.151
1766.000,3.191
1767.000,3.086
1768.000,3.139
1769.000,3.147
1770.000,3.103
1771.000,3.131
1772.000,3.127
1773.000,3.127
1774.000,3.139
1775.000,3.095
1776.000,3.107
1777.000,3.139
1778.000,3.175
1779.000,3.175
1780.000,3.119
1781.000,3.135
1782.000,3.147
1783.000,3.095
1784.000,3.103
1785.000,3.131
1786.000,3.147
1787.000,3.135
1788.000,3.159
1789.000,3.115
1790.000,3.119
1791.000,3.111
1792.000,3.183
1793.000,3.099
1794.000,3.127
1795.000,3.086
1796.000,3.163
1797.000,3.119
1798.000,3.167
1799.000,3.123
1800.000,3.151
1801.000,3.135
1802.000,3.143
1803.000,3.082
1804.000,3.187
1805.000,3.135
1806.000,3.103
1807.000,3.167
1808.000,3.159
1809.000,3.099
1810.000,3.167
1811.000,3.135
1812.000,3.103
1813.000,3.082
1814.000,3.171
1815.000,3.082
1816.000,3.095
1817.000,3.143
1818.000,3.191
1819.000,3.135
1820.000,3.095
1821.000,3.131
1822.000,3.131
1823.000,3.143
1824.000,3.111
1825.000,3.143
1826.000,3.090
1827.000,3.107
1828.000,3.082
1829.000,3.179
1830.000,3.107
1831.000,3.119
1832.000,3.159
1833.000,3.082
1834.000,3.175
1835.000,3.099
1836.000,3.111
1837.000,3.127
1838.000,3.119
1839.000,3.103
1840.000,3.147
1841.000,3.131
1842.000,3.095
1843.000,3.099
1844.000,3.179
1845.000,3.143
1846.000,3.151
1847.000,3.135
1848.000,3.143
1849.000,3.099
1850.000,3.115
1851.000,3.175
1852.000,3.103
1853.000,3.131
1854.000,3.103
1855.000,3.111
1856.000,3.147
1857.000,3.082
1858.000,3.095
1859.000,3.127
1860.000,3.163
1861.000,3.103
1862.000,3.107
1863.000,3.127
1864.000,3.086
1865.000,3.139
1866.000,3.139
1867.000,3.095
1868.000,3.070
1869.000,3.095
1870.000,3.139
1871.000,3.167
1872.000,3.103
1873.000,3.107
1874.000,3.163
1875.000,3.099
1876.000,3.115
1877.000,3.135
1878.000,3.078
1879.000,3.111
1880.000,3.139
1881.000,3.135
1882.000,3.147
1883.000,3.082
1884.000,3.095
1885.000,3.107
1886.000,3.155
1887.000,3.111
1888.000,3.074
1889.000,3.115
1890.000,3.123
1891.000,3.163
1892.000,3.175
1893.000,3.119
1894.000,3.086
1895.000,3.163
1896.000,3.103
1897.000,3.143
1898.000,3.086
1899.000,3.111
1900.000,3.135
1901.000,3.159
1902.000,3.187
1903.000,3.139
1904.000,3.111
1905.000,3.086
1906.000,3.151
1907.000,3.151
1908.000,3.191
1909.000,3.123
1910.000,3.082
1911.000,3.151
1912.000,3.103
1913.000,3.155
1914.000,3.074
1915.000,3.119
1916.000,3.127
1917.000,3.095
1918.000,3.139
1919.000,3.103
1920.000,3.115
1921.000,3.119
1922.000,3.107
1923.000,3.099
1924.000,3.095
1925.000,3.127
1926.000,3.119
1927.000,3.163
1928.000,3.078
1929.000,3.139
1930.000,3.082
1931.000,3.090
1932.000,3.131
1933.000,3.099
1934.000,3.147
1935.000,3.131
1936.000,3.119
1937.000,3.179
1938.000,3.191
1939.000,3.078
1940.000,3.143
1941.000,3.147
1942.000,3.127
1943.000,3.135
1944.000,3.127
1945.000,3.127
1946.000,3.111
1947.000,3.115
1948.000,3.143
1949.000,3.115
1950.000,3.095
1951.000,3.082
1952.000,3.135
1953.000,3.143
1954.000,3.159
1955.000,3.086
1956.000,3.131
1957.000,3.103
1958.000,3.095
1959.000,3.127
1960.000,3.095
1961.000,3.135
1962.000,3.163
1963.000,3.151
1964.000,3.099
1965.000,3.135
1966.000,3.086
1967.000,3.095
1968.000,3.171
1969.000,3.127
1970.000,3.099
1971.000,3.143
1972.000,3.111
1973.000,3.090
1974.000,3.111
1975.000,3.151
1976.000,3.163
1977.000,3.175
1978.000,3.115
1979.000,3.115
1980.000,3.095
1981.000,3.103
1982.000,3.119
1983.000,3.135
1984.000,3.147
1985.000,3.123
1986.000,3.147
1987.000,3.135
1988.000,3.074
1989.000,3.147
1990.000,3.103
1991.000,3.086
1992.000,3.095
1993.000,3.147
1994.000,3.143
1995.000,3.139
1996.000,3.099
1997.000,3.127
1998.000,3.131
1999.000,3.147
2000.000,3.103
2001.000,3.147
2002.000,3.095
2003.000,3.103
2004.000,3.147
2005.000,3.135
2006.000,3.167
2007.000,3.163
2008.000,3.115
2009.000,3.095
2010.000,3.095
2011.000,3.135
2012.000,3.139
2013.000,3.159
2014.000,3.090
2015.000,3.123
2016.000,3.127
2017.000,3.175
2018.000,3.151
2019.000,3.131
2020.000,3.078
2021.000,3.143
2022.000,3.191
2023.000,3.143
2024.000,3.099
2025.000,3.131
2026.000,3.090
2027.000,3.103
2028.000,3.183
2029.000,3.099
2030.000,3.099
2031.000,3.127
2032.000,3.123
2033.000,3.086
2034.000,3.099
2035.000,3.119
2036.000,3.099
2037.000,3.175
2038.000,3.078
2039.000,3.115
2040.000,3.143
2041.000,3.139
2042.000,3.143
2043.000,3.135
2044.000,3.119
2045.000,3.207
2046.000,3.090
2047.000,3.082
2048.000,3.179
2049.000,3.103
2050.000,3.103
2051.000,3.167
2052.000,3.095
2053.000,3.155
2054.000,3.115
2055.000,3.135
2056.000,3.115
2057.000,3.171
2058.000,3.070
2059.000,3.199
2060.000,3.143
2061.000,3.095
2062.000,3.147
2063.000,3.095
2064.000,3.143
2065.000,3.107
2066.000,3.135
2067.000,3.086
2068.000,3.175
2069.000,3.139
2070.000,3.147
2071.000,3.147
2072.000,3.099
2073.000,3.078
2074.000,3.103
2075.000,3.151
2076.000,3.163
2077.000,3.115
2078.000,3.191
2079.000,3.115
2080.000,3.135
2081.000,3.191
2082.000,3.119
2083.000,3.103
2084.000,3.207
2085.000,3.135
2086.000,3.115
2087.000,3.111
2088.000,3.115
2089.000,3.115
2090.000,3.139
2091.000,3.086
2092.000,3.159
2093.000,3.111
2094.000,3.143
2095.000,3.078
2096.000,3.119
2097.000,3.139
2098.000,3.175
2099.000,3.143
2100.000,3.135
2101.000,3.127
2102.000,3.111
2103.000,3.151
2104.000,3.151
2105.000,3.135
2106.000,3.167
2107.000,3.127
2108.000,3.127
2109.000,3.139
2110.000,3.107
2111.000,3.163
2112.000,3.159
2113.000,3.115
2114.000,3.139
2115.000,3.131
2116.000,3.143
2117.000,3.143
2118.000,3.095
2119.000,3.127
2120.000,3.111
2121.000,3.131
2122.000,3.107
2123.000,3.167
2124.000,3.143
2125.000,3.086
2126.000,3.119
2127.000,3.159
2128.000,3.095
2129.000,3.151
2130.000,3.171
2131.000,3.147
2132.000,3.107
2133.000,3.127
2134.000,3.135
2135.000,3.103
2136.000,3.115
2137.000,3.123
2138.000,3.183
2139.000,3.139
2140.000,3.139
2141.000,3.163
2142.000,3.179
2143.000,3.147
2144.000,3.119
2145.000,3.167
2146.000,3.171
2147.000,3.147
2148.000,3.147
2149.000,3.095
2150.000,3.147
2151.000,3.131
2152.000,3.135
2153.000,3.183
2154.000,3.143
2155.000,3.127
2156.000,3.151
2157.000,3.143
2158.000,3.127
2159.000,3.163
2160.000,3.139
2161.000,3.151
2162.000,3.139
2163.000,3.167
2164.000,3.131
2165.000,3.111
2166.000,3.151
2167.000,3.119
2168.000,3.082
2169.000,3.151
2170.000,3.131
2171.000,3.159
2172.000,3.159
2173.000,3.155
2174.000,3.179
2175.000,3.099
2176.000,3.155
2177.000,3.159
2178.000,3.131
2179.000,3.131
2180.000,3.111
2181.000,3.082
2182.000,3.115
2183.000,3.119
2184.000,3.074
2185.000,3.111
2186.000,3.127
2187.000,3.090
2188.000,3.175
2189.000,3.107
2190.000,3.175
2191.000,3.135
2192.000,3.175
2193.000,3.143
2194.000,3.123
2195.000,3.191
2196.000,3.171
2197.000,3.167
2198.000,3.187
2199.000,3.082
2200.000,3.119
2201.000,3.147
2202.000,3.179
2203.000,3.143
2204.000,3.159
2205.000,3.123
2206.000,3.082
2207.000,3.147
2208.000,3.151
2209.000,3.135
2210.000,3.119
2211.000,3.183
2212.000,3.167
2213.000,3.151
2214.000,3.119
2215.000,3.135
2216.000,3.086
2217.000,3.086
2218.000,3.147
2219.000,3.103
2220.000,3.147
2221.000,3.147
2222.000,3.143
2223.000,3.111
2224.000,3.155
2225.000,3.131
2226.000,3.139
2227.000,3.135
2228.000,3.115
2229.000,3.195
2230.000,3.099
2231.000,3.135
2232.000,3.107
2233.000,3.090
2234.000,3.187
2235.000,3.090
2236.000,3.095
2237.000,3.131
2238.000,3.139
2239.000,3.139
2240.000,3.127
2241.000,3.139
2242.000,3.143
2243.000,3.135
2244.000,3.111
2245.000,3.127
2246.000,3.111
2247.000,3.183
2248.000,3.107
2249.000,3.179
2250.000,3.127
2251.000,3.127
2252.000,3.103
2253.000,3.119
2254.000,3.099
2255.000,3.090
2256.000,3.143
2257.000,3.163
2258.000,3.099
2259.000,3.127
2260.000,3.163
2261.000,3.167
2262.000,3.143
2263.000,3.078
2264.000,3.111
2265.000,3.115
2266.000,3.127
2267.000,3.151
2268.000,3.191
2269.000,3.147
2270.000,3.179
2271.000,3.155
2272.000,3.139
2273.000,3.159
2274.000,3.175
2275.000,3.082
2276.000,3.111
2277.000,3.139
2278.000,3.171
2279.000,3.095
2280.000,3.078
2281.000,3.099
2282.000,3.155
2283.000,3.095
2284.000,3.147
2285.000,3.139
2286.000,3.135
2287.000,3.111
2288.000,3.147
2289.000,3.115
2290.000,3.082
2291.000,3.099
2292.000,3.171
2293.000,3.183
2294.000,3.115
2295.000,3.135
2296.000,3.111
2297.000,3.107
2298.000,3.139
2299.000,3.103
2300.000,3.151
2301.000,3.143
2302.000,3.143
2303.000,3.139
2304.000,3.159
2305.000,3.127
2306.000,3.139
2307.000,3.151
2308.000,3.119
2309.000,3.115
2310.000,3.143
2311.000,3.143
2312.000,3.195
2313.000,3.078
2314.000,3.127
2315.000,3.143
2316.000,3.099
2317.000,3.167
2318.000,3.139
2319.000,3.147
2320.000,3.090
2321.000,3.171
2322.000,3.111
2323.000,3.099
2324.000,3.135
2325.000,3.135
2326.000,3.167
2327.000,3.147
2328.000,3.179
2329.000,3.139
2330.000,3.115
2331.000,3.147
2332.000,3.107
2333.000,3.163
2334.000,3.151
2335.000,3.115
2336.000,3.163
2337.000,3.082
2338.000,3.119
2339.000,3.103
2340.000,3.171
2341.000,3.111
2342.000,3.143
2343.000,3.151
2344.000,3.107
2345.000,3.099
2346.000,3.139
2347.000,3.139
2348.000,3.179
2349.000,3.115
2350.000,3.127
2351.000,3.103
2352.000,3.143
2353.000,3.135
2354.000,3.103
2355.000,3.103
2356.000,3.159
2357.000,3.099
2358.000,3.151
2359.000,3.151
2360.000,3.167
2361.000,3.147
2362.000,3.119
2363.000,3.151
2364.000,3.111
2365.000,3.095
2366.000,3.159
2367.000,3.082
2368.000,3.179
2369.000,3.082
2370.000,3.147
2371.000,3.099
2372.000,3.143
2373.000,3.143
2374.000,3.191
2375.000,3.115
2376.000,3.167
2377.000,3.111
2378.000,3.151
2379.000,3.135
2380.000,3.159
2381.000,3.127
2382.000,3.111
2383.000,3.099
2384.000,3.155
2385.000,3.095
2386.000,3.131
2387.000,3.127
2388.000,3.163
2389.000,3.195
2390.000,3.159
2391.000,3.147
2392.000,3.131
2393.000,3.111
2394.000,3.171
2395.000,3.107
2396.000,3.135
2397.000,3.139
2398.000,3.111
2399.000,3.115
2400.000,3.159
2401.000,3.115
2402.000,3.143
2403.000,3.107
2404.000,3.195
2405.000,3.183
2406.000,3.159
2407.000,3.135
2408.000,3.107
2409.000,3.127
2410.000,3.111
2411.000,3.179
2412.000,3.103
2413.000,3.127
2414.000,3.078
2415.000,3.099
2416.000,3.131
2417.000,3.086
2418.000,3.151
2419.000,3.143
2420.000,3.167
2421.000,3.151
2422.000,3.107
2423.000,3.095
2424.000,3.147
2425.000,3.135
2426.000,3.151
2427.000,3.103
2428.000,3.139
2429.000,3.103
2430.000,3.203
2431.000,3.139
2432.000,3.082
2433.000,3.139
2434.000,3.191
2435.000,3.135
2436.000,3.127
2437.000,3.155
2438.000,3.131
2439.000,3.127
2440.000,3.099
2441.000,3.159
2442.000,3.151
2443.000,3.103
2444.000,3.143
2445.000,3.159
2446.000,3.090
2447.000,3.115
2448.000,3.111
2449.000,3.155
2450.000,3.107
2451.000,3.143
2452.000,3.131
2453.000,3.191
2454.000,3.127
2455.000,3.095
2456.000,3.107
2457.000,3.151
2458.000,3.111
2459.000,3.115
2460.000,3.099
2461.000,3.115
2462.000,3.082
2463.000,3.107
2464.000,3.171
2465.000,3.167
2466.000,3.191
2467.000,3.086
2468.000,3.131
2469.000,3.159
2470.000,3.151
2471.000,3.135
2472.000,3.090
2473.000,3.175
2474.000,3.107
2475.000,3.099
2476.000,3.103
2477.000,3.123
2478.000,3.111
2479.000,3.095
2480.000,3.139
2481.000,3.082
2482.000,3.099
2483.000,3.099
2484.000,3.131
2485.000,3.127
2486.000,3.135
2487.000,3.151
2488.000,3.159
2489.000,3.147
2490.000,3.175
2491.000,3.171
2492.000,3.159
2493.000,3.199
2494.000,3.090
2495.000,3.127
2496.000,3.123
2497.000,3.119
2498.000,3.107
2499.000,3.131
2500.000,3.127
2501.000,3.099
2502.000,3.199
2503.000,3.135
2504.000,3.151
2505.000,3.131
2506.000,3.115
2507.000,3.115
2508.000,3.143
2509.000,3.195
2510.000,3.163
2511.000,3.135
2512.000,3.099
2513.000,3.103
2514.000,3.135
2515.000,3.127
2516.000,3.082
2517.000,3.111
2518.000,3.115
2519.000,3.131
2520.000,3.179
2521.000,3.163
2522.000,3.143
2523.000,3.119
2524.000,3.082
2525.000,3.171
2526.000,3.147
2527.000,3.183
2528.000,3.103
2529.000,3.103
2530.000,3.147
2531.000,3.151
2532.000,3.103
2533.000,3.099
2534.000,3.151
2535.000,3.147
2536.000,3.123
2537.000,3.107
2538.000,3.139
2539.000,3.151
2540.000,3.099
2541.000,3.115
2542.000,3.151
2543.000,3.143
2544.000,3.095
2545.000,3.151
2546.000,3.179
2547.000,3.111
2548.000,3.070
2549.000,3.171
2550.000,3.159
2551.000,3.163
2552.000,3.139
2553.000,3.127
2554.000,3.167
2555.000,3.131
2556.000,3.115
2557.000,3.167
2558.000,3.147
2559.000,3.111
2560.000,3.159
2561.000,3.095
2562.000,3.139
2563.000,3.135
2564.000,3.127
2565.000,3.090
2566.000,3.115
2567.000,3.111
2568.000,3.111
2569.000,3.143
2570.000,3.123
2571.000,3.151
2572.000,3.131
2573.000,3.090
2574.000,3.183
2575.000,3.119
2576.000,3.135
2577.000,3.151
2578.000,3.099
2579.000,3.119
2580.000,3.103
2581.000,3.139
2582.000,3.159
2583.000,3.147
2584.000,3.107
2585.000,3.078
2586.000,3.115
2587.000,3.171
2588.000,3.195
2589.000,3.139
2590.000,3.115
2591.000,3.135
2592.000,3.139
2593.000,3.139
2594.000,3.139
2595.000,3.151
2596.000,3.163
2597.000,3.070
2598.000,3.195
2599.000,3.119
2600.000,3.135
2601.000,3.183
2602.000,3.139
2603.000,3.139
2604.000,3.115
2605.000,3.119
2606.000,3.099
2607.000,3.135
2608.000,3.151
2609.000,3.078
2610.000,3.167
2611.000,3.131
2612.000,3.147
2613.000,3.099
2614.000,3.131
2615.000,3.090
2616.000,3.131
2617.000,3.107
2618.000,3.123
2619.000,3.115
2620.000,3.082
2621.000,3.147
2622.000,3.175
2623.000,3.103
2624.000,3.139
2625.000,3.139
2626.000,3.135
2627.000,3.111
2628.000,3.115
2629.000,3.159
2630.000,3.103
2631.000,3.147
2632.000,3.127
2633.000,3.131
2634.000,3.147
2635.000,3.111
2636.000,3.151
2637.000,3.167
2638.000,3.143
2639.000,3.135
2640.000,3.179
2641.000,3.107
2642.000,3.115
2643.000,3.139
2644.000,3.103
2645.000,3.111
2646.000,3.147
2647.000,3.147
2648.000,3.119
2649.000,3.151
2650.000,3.171
2651.000,3.163
2652.000,3.115
2653.000,3.127
2654.000,3.078
2655.000,3.159
2656.000,3.115
2657.000,3.090
2658.000,3.103
2659.000,3.163
2660.000,3.139
2661.000,3.143
2662.000,3.135
2663.000,3.139
2664.000,3.115
2665.000,3.115
2666.000,3.175
2667.000,3.086
2668.000,3.131
2669.000,3.123
2670.000,3.095
2671.000,3.135
2672.000,3.095
2673.000,3.107
2674.000,3.139
2675.000,3.151
2676.000,3.115
2677.000,3.074
2678.000,3.183
2679.000,3.135
2680.000,3.123
2681.000,3.107
2682.000,3.147
2683.000,3.151
2684.000,3.151
2685.000,3.147
2686.000,3.151
2687.000,3.099
2688.000,3.115
2689.000,3.131
2690.000,3.183
2691.000,3.139
2692.000,3.095
2693.000,3.115
2694.000,3.107
2695.000,3.078
2696.000,3.082
2697.000,3.095
2698.000,3.103
2699.000,3.119
2700.000,3.139
2701.000,3.147
2702.000,3.131
2703.000,3.095
2704.000,3.131
2705.000,3.127
2706.000,3.159
2707.000,3.147
2708.000,3.195
2709.000,3.151
2710.000,3.167
2711.000,3.111
2712.000,3.147
2713.000,3.139
2714.000,3.082
2715.000,3.151
2716.000,3.151
2717.000,3.086
2718.000,3.139
2719.000,3.131
2720.000,3.107
2721.000,3.099
2722.000,3.139
2723.000,3.115
2724.000,3.151
2725.000,3.135
2726.000,3.127
2727.000,3.119
2728.000,3.107
2729.000,3.131
2730.000,3.103
2731.000,3.151
2732.000,3.183
2733.000,3.115
2734.000,3.119
2735.000,3.163
2736.000,3.167
2737.000,3.171
2738.000,3.183
2739.000,3.099
2740.000,3.107
2741.000,3.163
2742.000,3.131
2743.000,3.095
2744.000,3.103
2745.000,3.111
2746.000,3.151
2747.000,3.159
2748.000,3.135
2749.000,3.095
2750.000,3.119
2751.000,3.074
2752.000,3.139
2753.000,3.155
2754.000,3.151
2755.000,3.099
2756.000,3.127
2757.000,3.119
2758.000,3.183
2759.000,3.147
2760.000,3.171
2761.000,3.119
2762.000,3.086
2763.000,3.099
2764.000,3.167
2765.000,3.127
2766.000,3.095
2767.000,3.107
2768.000,3.103
2769.000,3.131
2770.000,3.103
2771.000,3.111
2772.000,3.147
2773.000,3.103
2774.000,3.086
2775.000,3.199
2776.000,3.107
2777.000,3.175
2778.000,3.127
2779.000,3.119
2780.000,3.139
2781.000,3.115
2782.000,3.107
2783.000,3.143
2784.000,3.119
2785.000,3.131
2786.000,3.103
2787.000,3.107
2788.000,3.143
2789.000,3.131
2790.000,3.115
2791.000,3.131
2792.000,3.099
2793.000,3.127
2794.000,3.151
2795.000,3.147
2796.000,3.135
2797.000,3.099
2798.000,3.147
2799.000,3.151
2800.000,3.135
2801.000,3.103
2802.000,3.151
2803.000,3.111
2804.000,3.111
2805.000,3.151
2806.000,3.074
2807.000,3.159
2808.000,3.143
2809.000,3.135
2810.000,3.159
2811.000,3.159
2812.000,3.143
2813.000,3.099
2814.000,3.095
2815.000,3.099
2816.000,3.139
2817.000,3.074
2818.000,3.103
2819.000,3.159
2820.000,3.139
2821.000,3.119
2822.000,3.127
2823.000,3.139
2824.000,3.115
2825.000,3.086
2826.000,3.131
2827.000,3.111
2828.000,3.099
2829.000,3.139
2830.000,3.119
2831.000,3.119
2832.000,3.119
2833.000,3.183
2834.000,3.179
2835.000,3.127
2836.000,3.086
2837.000,3.135
2838.000,3.139
2839.000,3.143
2840.000,3.086
2841.000,3.159
2842.000,3.115
2843.000,3.147
2844.000,3.171
2845.000,3.131
2846.000,3.115
2847.000,3.175
2848.000,3.115
2849.000,3.131
2850.000,3.086
2851.000,3.127
2852.000,3.143
2853.000,3.078
2854.000,3.163
2855.000,3.119
2856.000,3.082
2857.000,3.159
2858.000,3.143
2859.000,3.115
2860.000,3.115
2861.000,3.155
2862.000,3.119
2863.000,3.078
2864.000,3.155
2865.000,3.086
2866.000,3.127
2867.000,3.175
2868.000,3.143
2869.000,3.143
2870.000,3.151
2871.000,3.135
2872.000,3.163
2873.000,3.167
2874.000,3.163
2875.000,3.147
2876.000,3.066
2877.000,3.151
2878.000,3.179
2879.000,3.111
2880.000,3.163
2881.000,3.115
2882.000,3.139
2883.000,3.135
2884.000,3.103
2885.000,3.171
2886.000,3.095
2887.000,3.143
2888.000,3.155
2889.000,3.103
2890.000,3.111
2891.000,3.099
2892.000,3.115
2893.000,3.175
2894.000,3.119
2895.000,3.143
2896.000,3.086
2897.000,3.167
2898.000,3.135
2899.000,3.115
2900.000,3.099
2901.000,3.155
2902.000,3.086
2903.000,3.135
2904.000,3.099
2905.000,3.151
2906.000,3.147
2907.000,3.115
2908.000,3.107
2909.000,3.155
2910.000,3.107
2911.000,3.135
2912.000,3.103
2913.000,3.131
2914.000,3.131
2915.000,3.095
2916.000,3.095
2917.000,3.195
2918.000,3.131
2919.000,3.167
2920.000,3.123
2921.000,3.115
2922.000,3.127
2923.000,3.139
2924.000,3.107
2925.000,3.119
2926.000,3.127
2927.000,3.082
2928.000,3.119
2929.000,3.119
2930.000,3.147
2931.000,3.131
2932.000,3.159
2933.000,3.115
2934.000,3.139
2935.000,3.135
2936.000,3.095
2937.000,3.131
2938.000,3.119
2939.000,3.135
2940.000,3.119
2941.000,3.139
2942.000,3.103
2943.000,3.143
2944.000,3.139
2945.000,3.095
2946.000,3.183
2947.000,3.131
2948.000,3.159
2949.000,3.143
2950.000,3.143
2951.000,3.103
2952.000,3.163
2953.000,3.147
2954.000,3.115
2955.000,3.078
2956.000,3.175
2957.000,3.099
2958.000,3.111
2959.000,3.143
2960.000,3.131
2961.000,3.163
2962.000,3.135
2963.000,3.139
2964.000,3.131
2965.000,3.135
2966.000,3.175
2967.000,3.127
2968.000,3.111
2969.000,3.119
2970.000,3.119
2971.000,3.119
2972.000,3.070
2973.000,3.103
2974.000,3.131
2975.000,3.078
2976.000,3.099
2977.000,3.151
2978.000,3.159
2979.000,3.143
2980.000,3.143
2981.000,3.147
2982.000,3.103
2983.000,3.074
2984.000,3.111
2985.000,3.111
2986.000,3.155
2987.000,3.151
2988.000,3.167
2989.000,3.131
2990.000,3.143
2991.000,3.139
2992.000,3.103
2993.000,3.135
2994.000,3.135
2995.000,3.119
2996.000,3.090
2997.000,3.107
2998.000,3.103
2999.000,3.163
3000.000,3.107
3001.000,3.095
3002.000,3.143
3003.000,3.175
3004.000,3.103
3005.000,3.147
3006.000,3.155
3007.000,3.119
3008.000,3.099
3009.000,3.135
3010.000,3.103
3011.000,3.111
3012.000,3.139
3013.000,3.086
3014.000,3.163
3015.000,3.159
3016.000,3.147
3017.000,3.143
3018.000,3.151
3019.000,3.099
3020.000,3.095
3021.000,3.095
3022.000,3.074
3023.000,3.082
3024.000,3.115
3025.000,3.119
3026.000,3.103
3027.000,3.175
3028.000,3.111
3029.000,3.119
3030.000,3.155
3031.000,3.171
3032.000,3.199
3033.000,3.139
3034.000,3.074
3035.000,3.151
3036.000,3.082
3037.000,3.074
3038.000,3.147
3039.000,3.163
3040.000,3.139
3041.000,3.159
3042.000,3.143
3043.000,3.131
3044.000,3.086
3045.000,3.115
3046.000,3.131
3047.000,3.159
3048.000,3.167
3049.000,3.111
3050.000,3.143
3051.000,3.131
3052.000,3.135
3053.000,3.135
3054.000,3.107
3055.000,3.135
3056.000,3.171
3057.000,3.171
3058.000,3.127
3059.000,3.131
3060.000,3.147
3061.000,3.171
3062.000,3.086
3063.000,3.127
3064.000,3.135
3065.000,3.119
3066.000,3.191
3067.000,3.127
3068.000,3.135
3069.000,3.107
3070.000,3.099
3071.000,3.155
3072.000,3.099
3073.000,3.099
3074.000,3.131
3075.000,3.159
3076.000,3.135
3077.000,3.078
3078.000,3.107
3079.000,3.143
3080.000,3.115
3081.000,3.139
3082.000,3.107
3083.000,3.099
3084.000,3.095
3085.000,3.111
3086.000,3.139
3087.000,3.139
3088.000,3.155
3089.000,3.090
3090.000,3.127
3091.000,3.175
3092.000,3.111
3093.000,3.111
3094.000,3.159
3095.000,3.111
3096.000,3.151
3097.000,3.175
3098.000,3.163
3099.000,3.147
3100.000,3.163
3101.000,3.143
3102.000,3.163
3103.000,3.099
3104.000,3.103
3105.000,3.175
3106.000,3.135
3107.000,3.095
3108.000,3.147
3109.000,3.127
3110.000,3.147
3111.000,3.163
3112.000,3.107
3113.000,3.135
3114.000,3.111
3115.000,3.119
3116.000,3.099
3117.000,3.135
3118.000,3.111
3119.000,3.171
3120.000,3.131
3121.000,3.095
3122.000,3.099
3123.000,3.107
3124.000,3.143
3125.000,3.099
3126.000,3.151
3127.000,3.066
3128.000,3.131
3129.000,3.095
3130.000,3.167
3131.000,3.143
3132.000,3.082
3133.000,3.115
3134.000,3.143
3135.000,3.111
3136.000,3.119
3137.000,3.163
3138.000,3.179
3139.000,3.107
3140.000,3.131
3141.000,3.143
3142.000,3.095
3143.000,3.135
3144.000,3.147
3145.000,3.127
3146.000,3.127
3147.000,3.127
3148.000,3.191
3149.000,3.107
3150.000,3.095
3151.000,3.147
3152.000,3.086
3153.000,3.151
3154.000,3.151
3155.000,3.107
3156.000,3.143
3157.000,3.127
3158.000,3.099
3159.000,3.135
3160.000,3.147
3161.000,3.167
3162.000,3.123
3163.000,3.167
3164.000,3.139
3165.000,3.086
3166.000,3.195
3167.000,3.086
3168.000,3.195
3169.000,3.167
3170.000,3.111
3171.000,3.107
3172.000,3.119
3173.000,3.163
3174.000,3.147
3175.000,3.095
3176.000,3.163
3177.000,3.099
3178.000,3.139
3179.000,3.095
3180.000,3.135
3181.000,3.135
3182.000,3.111
3183.000,3.139
3184.000,3.127
3185.000,3.107
3186.000,3.103
3187.000,3.103
3188.000,3.078
3189.000,3.107
3190.000,3.143
3191.000,3.095
3192.000,3.167
3193.000,3.103
3194.000,3.191
3195.000,3.115
3196.000,3.183
3197.000,3.119
3198.000,3.143
3199.000,3.147
3200.000,3.119
3201.000,3.135
3202.000,3.183
3203.000,3.107
3204.000,3.127
3205.000,3.147
3206.000,3.171
3207.000,3.171
3208.000,3.143
3209.000,3.103
3210.000,3.175
3211.000,3.095
3212.000,3.099
3213.000,3.115
3214.000,3.131
3215.000,3.119
3216.000,3.111
3217.000,3.099
3218.000,3.139
3219.000,3.151
3220.000,3.183
3221.000,3.127
3222.000,3.103
3223.000,3.082
3224.000,3.139
3225.000,3.095
3226.000,3.111
3227.000,3.103
3228.000,3.111
3229.000,3.167
3230.000,3.139
3231.000,3.151
3232.000,3.127
3233.000,3.111
3234.000,3.086
3235.000,3.127
3236.000,3.167
3237.000,3.163
3238.000,3.147
3239.000,3.107
3240.000,3.115
3241.000,3.171
3242.000,3.099
3243.000,3.155
3244.000,3.135
3245.000,3.139
3246.000,3.111
3247.000,3.090
3248.000,3.143
3249.000,3.167
3250.000,3.115
3251.000,3.163
3252.000,3.127
3253.000,3.103
3254.000,3.119
3255.000,3.131
3256.000,3.095
3257.000,3.099
3258.000,3.167
3259.000,3.078
3260.000,3.155
3261.000,3.107
3262.000,3.159
3263.000,3.082
3264.000,3.111
3265.000,3.151
3266.000,3.066
3267.000,3.127
3268.000,3.099
3269.000,3.103
3270.000,3.090
3271.000,3.147
3272.000,3.095
3273.000,3.127
3274.000,3.086
3275.000,3.151
3276.000,3.167
3277.000,3.107
3278.000,3.095
3279.000,3.095
3280.000,3.086
3281.000,3.115
3282.000,3.127
3283.000,3.163
3284.000,3.151
3285.000,3.151
3286.000,3.119
3287.000,3.139
3288.000,3.115
3289.000,3.143
3290.000,3.179
3291.000,3.127
3292.000,3.131
3293.000,3.143
3294.000,3.111
3295.000,3.078
3296.000,3.131
3297.000,3.155
3298.000,3.131
3299.000,3.147
3300.000,3.095
3301.000,3.078
3302.000,3.151
3303.000,3.167
3304.000,3.099
3305.000,3.119
3306.000,3.082
3307.000,3.127
3308.000,3.139
3309.000,3.143
3310.000,3.139
3311.000,3.135
3312.000,3.139
3313.000,3.195
3314.000,3.090
3315.000,3.159
3316.000,3.127
3317.000,3.131
3318.000,3.171
3319.000,3.175
3320.000,3.171
3321.000,3.143
3322.000,3.107
3323.000,3.111
3324.000,3.078
3325.000,3.099
3326.000,3.115
3327.000,3.159
3328.000,3.151
3329.000,3.139
3330.000,3.115
3331.000,3.159
3332.000,3.086
3333.000,3.135
3334.000,3.143
3335.000,3.107
3336.000,3.107
3337.000,3.139
3338.000,3.171
3339.000,3.115
3340.000,3.135
3341.000,3.147
3342.000,3.099
3343.000,3.095
3344.000,3.086
3345.000,3.082
3346.000,3.123
3347.000,3.143
3348.000,3.123
3349.000,3.090
3350.000,3.127
3351.000,3.147
3352.000,3.127
3353.000,3.127
3354.000,3.151
3355.000,3.086
3356.000,3.135
3357.000,3.135
3358.000,3.119
3359.000,3.119
3360.000,3.143
3361.000,3.135
3362.000,3.127
3363.000,3.082
3364.000,3.135
3365.000,3.078
3366.000,3.119
3367.000,3.119
3368.000,3.151
3369.000,3.151
3370.000,3.086
3371.000,3.195
3372.000,3.086
3373.000,3.151
3374.000,3.143
3375.000,3.095
3376.000,3.143
3377.000,3.119
3378.000,3.135
3379.000,3.159
3380.000,3.127
3381.000,3.147
3382.000,3.099
3383.000,3.175
3384.000,3.159
3385.000,3.131
3386.000,3.179
3387.000,3.103
3388.000,3.119
3389.000,3.151
3390.000,3.167
3391.000,3.139
3392.000,3.167
3393.000,3.103
3394.000,3.159
3395.000,3.159
3396.000,3.111
3397.000,3.159
3398.000,3.159
3399.000,3.115
3400.000,3.159
3401.000,3.111
3402.000,3.107
3403.000,3.111
3404.000,3.115
3405.000,3.111
3406.000,3.163
3407.000,3.147
3408.000,3.099
3409.000,3.167
3410.000,3.107
3411.000,3.127
3412.000,3.151
3413.000,3.159
3414.000,3.123
3415.000,3.099
3416.000,3.147
3417.000,3.195
3418.000,3.143
3419.000,3.107
3420.000,3.147
3421.000,3.135
3422.000,3.151
3423.000,3.078
3424.000,3.135
3425.000,3.127
3426.000,3.135
3427.000,3.151
3428.000,3.111
3429.000,3.119
3430.000,3.163
3431.000,3.090
3432.000,3.135
3433.000,3.119
3434.000,3.127
3435.000,3.131
3436.000,3.131
3437.000,3.131
3438.000,3.147
3439.000,3.123
3440.000,3.163
3441.000,3.143
3442.000,3.090
3443.000,3.119
3444.000,3.119
3445.000,3.086
3446.000,3.135
3447.000,3.103
3448.000,3.111
3449.000,3.115
3450.000,3.195
3451.000,3.099
3452.000,3.099
3453.000,3.131
3454.000,3.082
3455.000,3.163
3456.000,3.103
3457.000,3.167
3458.000,3.175
3459.000,3.147
3460.000,3.207
3461.000,3.082
3462.000,3.151
3463.000,3.086
3464.000,3.191
3465.000,3.167
3466.000,3.171
3467.000,3.151
3468.000,3.078
3469.000,3.155
3470.000,3.159
3471.000,3.151
3472.000,3.159
3473.000,3.123
3474.000,3.139
3475.000,3.103
3476.000,3.115
3477.000,3.127
3478.000,3.107
3479.000,3.115
3480.000,3.135
3481.000,3.143
3482.000,3.095
3483.000,3.139
3484.000,3.139
3485.000,3.095
3486.000,3.131
3487.000,3.111
3488.000,3.151
3489.000,3.086
3490.000,3.155
3491.000,3.115
3492.000,3.107
3493.000,3.151
3494.000,3.082
3495.000,3.135
3496.000,3.143
3497.000,3.127
3498.000,3.111
3499.000,3.155
3500.000,3.107
3501.000,3.127
3502.000,3.143
3503.000,3.195
3504.000,3.119
3505.000,3.115
3506.000,3.095
3507.000,3.119
3508.000,3.131
3509.000,3.103
3510.000,3.131
3511.000,3.155
3512.000,3.159
3513.000,3.086
3514.000,3.074
3515.000,3.151
3516.000,3.163
3517.000,3.135
3518.000,3.090
3519.000,3.090
3520.000,3.187
3521.000,3.147
3522.000,3.175
3523.000,3.159
3524.000,3.155
3525.000,3.127
3526.000,3.127
3527.000,3.111
3528.000,3.135
3529.000,3.135
3530.000,3.183
3531.000,3.127
3532.000,3.107
3533.000,3.082
3534.000,3.139
3535.000,3.191
3536.000,3.123
3537.000,3.127
3538.000,3.107
3539.000,3.115
3540.000,3.179
3541.000,3.143
3542.000,3.131
3543.000,3.127
3544.000,3.074
3545.000,3.127
3546.000,3.151
3547.000,3.103
3548.000,3.135
3549.000,3.163
3550.000,3.099
3551.000,3.135
3552.000,3.086
3553.000,3.074
3554.000,3.115
3555.000,3.131
3556.000,3.119
3557.000,3.131
3558.000,3.171
3559.000,3.086
3560.000,3.119
3561.000,3.099
3562.000,3.135
3563.000,3.167
3564.000,3.115
3565.000,3.111
3566.000,3.111
3567.000,3.139
3568.000,3.090
3569.000,3.139
3570.000,3.143
3571.000,3.095
3572.000,3.103
3573.000,3.095
3574.000,3.086
3575.000,3.175
3576.000,3.131
3577.000,3.171
3578.000,3.151
3579.000,3.082
3580.000,3.099
3581.000,3.115
3582.000,3.111
3583.000,3.139
3584.000,3.171
3585.000,3.139
3586.000,3.115
3587.000,3.103
3588.000,3.127
3589.000,3.171
3590.000,3.082
3591.000,3.167
3592.000,3.131
3593.000,3.115
3594.000,3.135
3595.000,3.099
3596.000,3.179
3597.000,3.183
3598.000,3.127
3599.000,3.151
3600.000,3.082
3601.000,3.163
3602.000,3.103
3603.000,3.099
3604.000,3.171
3605.000,3.099
3606.000,3.135
3607.000,3.078
3608.000,3.090
3609.000,3.123
3610.000,3.078
3611.000,3.107
3612.000,3.095
3613.000,3.159
3614.000,3.107
3615.000,3.139
3616.000,3.171
3617.000,3.135
3618.000,3.139
3619.000,3.175
3620.000,3.107
3621.000,3.131
3622.000,3.139
3623.000,3.111
3624.000,3.095
3625.000,3.107
3626.000,3.139
3627.000,3.143
3628.000,3.147
3629.000,3.107
3630.000,3.086
3631.000,3.119
3632.000,3.103
3633.000,3.179
3634.000,3.107
3635.000,3.191
3636.000,3.183
3637.000,3.119
3638.000,3.147
3639.000,3.111
3640.000,3.199
3641.000,3.074
3642.000,3.103
3643.000,3.099
3644.000,3.127
3645.000,3.131
3646.000,3.135
3647.000,3.171
3648.000,3.131
3649.000,3.082
3650.000,3.086
3651.000,3.163
3652.000,3.078
3653.000,3.131
3654.000,3.127
3655.000,3.119
3656.000,3.074
3657.000,3.078
3658.000,3.082
3659.000,3.099
3660.000,3.151
3661.000,3.131
3662.000,3.143
3663.000,3.127
3664.000,3.167
3665.000,3.115
3666.000,3.131
3667.000,3.086
3668.000,3.111
3669.000,3.191
3670.000,3.090
3671.000,3.147
3672.000,3.147
3673.000,3.127
3674.000,3.135
3675.000,3.099
3676.000,3.082
3677.000,3.151
3678.000,3.203
3679.000,3.163
3680.000,3.171
3681.000,3.183
3682.000,3.135
3683.000,3.131
3684.000,3.151
3685.000,3.107
3686.000,3.179
3687.000,3.115
3688.000,3.147
3689.000,3.107
3690.000,3.135
3691.000,3.107
3692.000,3.179
3693.000,3.078
3694.000,3.143
3695.000,3.131
3696.000,3.131
3697.000,3.143
3698.000,3.131
3699.000,3.127
3700.000,3.147
3701.000,3.175
3702.000,3.086
3703.000,3.078
3704.000,3.127
3705.000,3.131
3706.000,3.127
3707.000,3.155
3708.000,3.155
3709.000,3.167
3710.000,3.203
3711.000,3.103
3712.000,3.163
3713.000,3.115
3714.000,3.159
3715.000,3.143
3716.000,3.135
3717.000,3.175
3718.000,3.095
3719.000,3.151
3720.000,3.119
3721.000,3.171
3722.000,3.115
3723.000,3.171
3724.000,3.143
3725.000,3.078
3726.000,3.099
3727.000,3.131
3728.000,3.135
3729.000,3.082
3730.000,3.163
3731.000,3.139
3732.000,3.095
3733.000,3.139
3734.000,3.151
3735.000,3.123
3736.000,3.127
3737.000,3.159
3738.000,3.143
3739.000,3.191
3740.000,3.090
3741.000,3.135
3742.000,3.143
3743.000,3.095
3744.000,3.171
3745.000,3.086
3746.000,3.163
3747.000,3.155
3748.000,3.119
3749.000,3.151
3750.000,3.139
3751.000,3.151
3752.000,3.175
3753.000,3.095
3754.000,3.135
3755.000,3.159
3756.000,3.103
3757.000,3.151
3758.000,3.111
3759.000,3.159
3760.000,3.163
3761.000,3.099
3762.000,3.155
3763.000,3.143
3764.000,3.115
3765.000,3.107
3766.000,3.123
3767.000,3.119
3768.000,3.119
3769.000,3.135
3770.000,3.107
3771.000,3.147
3772.000,3.127
3773.000,3.179
3774.000,3.155
3775.000,3.179
3776.000,3.107
3777.000,3.143
3778.000,3.103
3779.000,3.115
3780.000,3.082
3781.000,3.179
3782.000,3.127
3783.000,3.127
3784.000,3.139
3785.000,3.103
3786.000,3.171
3787.000,3.103
3788.000,3.107
3789.000,3.143
3790.000,3.103
3791.000,3.167
3792.000,3.115
3793.000,3.111
3794.000,3.107
3795.000,3.151
3796.000,3.159
3797.000,3.131
3798.000,3.099
3799.000,3.147
3800.000,3.163
3801.000,3.135
3802.000,3.151
3803.000,3.115
3804.000,3.119
3805.000,3.135
3806.000,3.090
3807.000,3.119
3808.000,3.115
3809.000,3.095
3810.000,3.151
3811.000,3.090
3812.000,3.086
3813.000,3.147
3814.000,3.135
3815.000,3.143
3816.000,3.139
3817.000,3.163
3818.000,3.159
3819.000,3.115
3820.000,3.139
3821.000,3.131
3822.000,3.111
3823.000,3.135
3824.000,3.131
3825.000,3.115
3826.000,3.115
3827.000,3.095
3828.000,3.163
3829.000,3.159
3830.000,3.127
3831.000,3.163
3832.000,3.103
3833.000,3.107
3834.000,3.127
3835.000,3.074
3836.000,3.107
3837.000,3.147
3838.000,3.171
3839.000,3.082
3840.000,3.119
3841.000,3.143
3842.000,3.115
3843.000,3.143
3844.000,3.175
3845.000,3.163
3846.000,3.115
3847.000,3.086
3848.000,3.127
3849.000,3.103
3850.000,3.103
3851.000,3.135
3852.000,3.095
3853.000,3.151
3854.000,3.159
3855.000,3.131
3856.000,3.147
3857.000,3.107
3858.000,3.131
3859.000,3.151
3860.000,3.159
3861.000,3.107
3862.000,3.078
3863.000,3.103
3864.000,3.135
3865.000,3.147
3866.000,3.119
3867.000,3.103
3868.000,3.159
3869.000,3.123
3870.000,3.099
3871.000,3.159
3872.000,3.159
3873.000,3.163
3874.000,3.119
3875.000,3.066
3876.000,3.131
3877.000,3.103
3878.000,3.131
3879.000,3.127
3880.000,3.139
3881.000,3.086
3882.000,3.143
3883.000,3.135
3884.000,3.078
3885.000,3.139
3886.000,3.103
3887.000,3.131
3888.000,3.131
3889.000,3.131
3890.000,3.167
3891.000,3.131
3892.000,3.159
3893.000,3.119
3894.000,3.147
3895.000,3.095
